Summary of the spectum NH3_linien: 
	 lower: 2924.0 [nm] 
	 upper: 2933.0 [nm] 
Gas cell 0: 
	 length: 100 cm | temp: 296 K|pressure: 1 atm|gas matrix: {'air': 0.9998, 'self': 0.0002} 
	 Gasses (VMR): 
	 	 NH3: 0.0002 

 wavelenth [nm] 	 absorption
2924.073307804419	0.0006562938924398187
2924.075017846361	0.0006677260821872366
2924.0767278903027	0.0006794471364958143
2924.078437936245	0.0006914656419965137
2924.080147984187	0.0007037904277330531
2924.08185803413	0.0007164305670611659
2924.083568086073	0.0007293953788262142
2924.0852781400154	0.0007426944277574288
2924.086988195958	0.0007563375239094672
2924.088698253901	0.0007703428680668756
2924.090408313844	0.0007847044673329195
2924.0921183757873	0.0007994409938743008
2924.0938284397307	0.0008145632104022971
2924.095538505674	0.0008300821034654682
2924.097248573618	0.0008460088742165972
2924.098958643562	0.0008623549270647679
2924.1006687155063	0.0008791318559480121
2924.1023787894505	0.0008963514280209139
2924.1040888653947	0.0009140255643961259
2924.1057989433393	0.0009321663176895534
2924.107509023284	0.0009507858460126029
2924.109219105229	0.0009698963830622187
2924.110929189174	0.0009895102039240156
2924.1126392751194	0.0010096395861864949
2924.1143493630652	0.0010302967659390205
2924.116059453011	0.001051493888174826
2924.117769544957	0.0010732429511950414
2924.1194796389027	0.0010955557444268793
2924.1211897348494	0.0011184437792194357
2924.1228998327956	0.001141918212069215
2924.1246099327423	0.001165989759754682
2924.1263200346893	0.0011906686058573701
2924.1280301386364	0.001215964298154626
2924.129740244584	0.001241885636390494
2924.131450352532	0.0012684405499682194
2924.1331604624797	0.0012956359651132843
2924.134870574428	0.0013234776612419674
2924.1365806883764	0.0013519701161447406
2924.138290804325	0.0013811163399030102
2924.140000922274	0.0014109176974591575
2924.141711042223	0.0014413737199527876
2924.143421164172	0.0014724819051096238
2924.145131288122	0.0015042375071766534
2924.146841414072	0.0015366333171386026
2924.1485515420222	0.0015696594342269332
2924.1502616719727	0.0016033030299814621
2924.151971803923	0.0016375481066112085
2924.1536819378744	0.0016723752514958834
2924.155392073825	0.001707761390303153
2924.157102211777	0.0017436795414341733
2924.1588123517286	0.0017800985749519826
2924.1605224936807	0.001816982979529369
2924.162232637633	0.0018542926413195326
2924.163942783586	0.0018919826389919292
2924.165652931539	0.0019300030593911721
2924.1673630814926	0.001969432363619128
2924.169073233446	0.002007944006057194
2924.1707833873998	0.0020466049484733073
2924.172493543354	0.0020853440474893903
2924.1742037013087	0.0021240847229334614
2924.1759138612633	0.002162744996299426
2924.1776240232184	0.002201237580896853
2924.179334187174	0.0022394700264839473
2924.1810443531303	0.0022773449203921103
2924.1827545210863	0.002314760146229111
2924.184464691043	0.0023516092005481104
2924.186174863	0.00238778156672248
2924.187885036957	0.002423163144850804
2924.1895952129144	0.0024576367357962425
2924.1913053908725	0.0024910825772587186
2924.1930155708305	0.002523378929827791
2924.194725752789	0.0025544065516033276
2924.196435936748	0.0025840340234623005
2924.198146122708	0.002612141507446042
2924.1998563106677	0.0026386061775854897
2924.201566500628	0.0026633068874386545
2924.203276692588	0.00268612505810939
2924.204986886549	0.002706945627767965
2924.2066970825103	0.0027256499715642146
2924.208407280472	0.002742151250174074
2924.210117480434	0.002756362606633478
2924.2118276823962	0.0027681314067957707
2924.2135378863595	0.0027774392313653085
2924.215248092323	0.002784194943435625
2924.216958300286	0.0027883401645386607
2924.21866851025	0.002789829783727993
2924.2203787222147	0.0027886332391739987
2924.2220889361793	0.0027847356974705084
2924.2237991521447	0.002778139076413555
2924.2255093701106	0.002768862854859999
2924.2272195900764	0.002756944615026846
2924.228929812043	0.0027424402686535565
2924.2306400360103	0.0027254239288093673
2924.232350261978	0.002705987403349819
2924.2340604899455	0.002684239303015201
2924.235770719914	0.002660303775969819
2924.2374809518824	0.002634318899169985
2924.2391911858517	0.002606434774245603
2924.2409014218215	0.002576811389845335
2924.2426116597917	0.002545616322630395
2924.244321899762	0.0025130223546141472
2924.2460321417334	0.0024792050851010217
2924.247742385705	0.002444340611447271
2924.249452631677	0.0024086033446261146
2924.251162879649	0.0023721640147550405
2924.2528731296225	0.0023351879084717586
2924.2545833815957	0.002297833366431412
2924.25629363557	0.0022602606782294865
2924.258003891544	0.0022269665103941128
2924.259714149519	0.002189344757150824
2924.2614244094943	0.0021518877047428386
2924.2631346714707	0.002114705963665031
2924.264844935447	0.0020778997067365523
2924.2665552014237	0.002041558837158508
2924.2682654694013	0.00200576329842439
2924.269975739379	0.0019705834966332603
2924.2716860113574	0.0019360808078183744
2924.2733962853363	0.001902308145422138
2924.275106561316	0.001869310566066984
2924.276816839296	0.0018371258949418934
2924.2785271192765	0.0018057853552828629
2924.2802374012576	0.0017753141894215618
2924.2819476852396	0.001745732261673738
2924.2836579712216	0.0017170546356395366
2924.2853682592045	0.001689292120851893
2924.2870785491873	0.0016624517852473764
2924.2887888411715	0.001636537431558338
2924.2904991351556	0.0016115500368586444
2924.2922094311407	0.0015874881554260867
2924.293919729126	0.0015643482857922164
2924.2956300291125	0.001542125203353506
2924.297340331099	0.001520812260308868
2924.299050635086	0.001500401654810024
2924.300760941074	0.0014808846715095303
2924.3024712490624	0.0014622518955538233
2924.3041815590514	0.0014444934021607958
2924.305891871041	0.0014275989238119458
2924.3076021850306	0.0014115579970015446
2924.3093125010214	0.0013963600903580398
2924.311022819013	0.001381994715815682
2924.312733139005	0.0013684515243663764
2924.3144434609976	0.0013557203877881951
2924.3161537849905	0.0013437914675370477
2924.3178641109844	0.0013326552719421514
2924.3195744389786	0.0013223027025959233
2924.321284768974	0.001312725090756861
2924.3229951009694	0.00130391422443088
2924.3247054349654	0.0012958623666776692
2924.3264157709623	0.0012885622655818274
2924.32812610896	0.0012820071562219537
2924.3298364489583	0.0012761907549041496
2924.331546790957	0.0012711072458181372
2924.3332571349565	0.0012667512602856368
2924.3349674809565	0.0012631178486842698
2924.3366778289574	0.0012602024451666693
2924.3383881789587	0.0012580008253113562
2924.3400985309604	0.001256509056912547
2924.3418088849635	0.0012557234442202025
2924.3435192409665	0.0012556404660920562
2924.345229598971	0.0012562567087192056
2924.346939958976	0.0012575687938266578
2924.348650320981	0.0012595733035426493
2924.350360684987	0.0012622667034547508
2924.352071050994	0.0012656452657214823
2924.3537814190013	0.0012697049944634387
2924.355491789009	0.0012744415559926559
2924.357202161018	0.0012798502167087333
2924.3589125350277	0.00128592455351495
2924.360622911038	0.0012926614896641153
2924.362333289049	0.0013000535338048014
2924.3640436690607	0.0013080939918372891
2924.3657540510726	0.0013167756734162595
2924.367464435086	0.0013260909315826463
2924.3691748210995	0.0013360317236572605
2924.370885209114	0.001346589691534339
2924.372595599129	0.001357756257892806
2924.374305991145	0.0013695227331648185
2924.3760163851616	0.001381880426529647
2924.3777267811793	0.0013948207529004275
2924.379437179198	0.0014083353269733756
2924.3811475792163	0.0014224160351656856
2924.382857981236	0.0014370550765246959
2924.3845683852564	0.0014522449648424196
2924.3862787912776	0.0014679784858531164
2924.387989199299	0.001484248605625904
2924.3896996093217	0.0015010483288210308
2924.391410021345	0.001518370508121758
2924.3931204353694	0.0015362076086564702
2924.3948308513945	0.0015545514333449306
2924.3965412694206	0.0015733928166510314
2924.398251689447	0.001592721295239019
2924.399962111474	0.0016125247641728402
2924.4016725355023	0.0016327891271759043
2924.403382961531	0.0016534979487291546
2924.4050933895605	0.0016746321149903043
2924.406803819591	0.0016961724386983512
2924.4085142516224	0.0017180881389879943
2924.410224685654	0.001740490836994013
2924.4119351216873	0.0017630714089854616
2924.413645559721	0.001785932758939457
2924.4153559997553	0.0018090303777981154
2924.4170664417907	0.0018323206540400427
2924.418776885827	0.0018557540102670522
2924.4204873318636	0.0018792766785598047
2924.4221977799016	0.0019028308962319995
2924.42390822994	0.0019263470461896581
2924.4256186819794	0.0019497787264249888
2924.42732913602	0.001973049142815597
2924.429039592061	0.001996276058080393
2924.430750050103	0.00201901646114222
2924.4324605101456	0.00204138518150776
2924.4341709721893	0.0020633195184651676
2924.4358814362336	0.0020847518459728986
2924.437591902279	0.0021056218208884703
2924.439302370325	0.002125875041279923
2924.4410128403724	0.002145464466843827
2924.44272331242	0.0021643517188056904
2924.4444337864693	0.002182508189668475
2924.446144262519	0.002199915897323712
2924.4478547405697	0.0022165680272815402
2924.449565220621	0.0022324691203550184
2924.4512757026732	0.002247634880622962
2924.4529861867263	0.0022620915980419154
2924.4546966727808	0.00227587520043937
2924.4564071608356	0.0022890299689676263
2924.4581176508914	0.002301606967932468
2924.4598281429485	0.002313662252974358
2924.4615386370065	0.0023252549300318837
2924.463249133065	0.0023364451411249654
2924.4649596311247	0.0023472920516919293
2924.466670131185	0.0023578519089180183
2924.4683806332464	0.0023681762317547816
2924.4700911373084	0.002378310182441168
2924.4718016433717	0.002388291157294775
2924.473512151436	0.0023981576613893996
2924.475222661501	0.0024079091165724043
2924.4769331735674	0.0024175631205458625
2924.4786436876343	0.0024271157387953934
2924.480354203702	0.002436553950799669
2924.482064721771	0.0024458532039639547
2924.483775241841	0.002454978358378379
2924.4854857639116	0.0024638841915123333
2924.4871962879834	0.002472516077129283
2924.488906814056	0.002480810817721779
2924.49061734213	0.0024898274854485702
2924.4923278722044	0.0024972298804545323
2924.49403840428	0.0025040643182379085
2924.495748938357	0.0025102440149673555
2924.4974594744344	0.002515679391694614
2924.4991700125133	0.002520279420397231
2924.5008805525927	0.002523952989877065
2924.5025910946733	0.002526610272130525
2924.504301638755	0.002528164069367511
2924.5060121848373	0.0025285311215061945
2924.5077227329207	0.0025276333538649665
2924.509433283006	0.0025253991916593943
2924.5111438350914	0.002521764042232033
2924.512854389178	0.0025166721259819447
2924.514564945265	0.002510076707958664
2924.516275503354	0.0025019409146770366
2924.5179860634435	0.002492259000985597
2924.519696625534	0.002480952919363344
2924.5214071896257	0.0024680800468270814
2924.5231177557184	0.0024536256371857634
2924.5248283238125	0.0024376064344850956
2924.5265388939074	0.0024200495959920687
2924.528249466003	0.0024009922223532376
2924.5299600401	0.002380480754047065
2924.531670616198	0.0023585702512702866
2924.533381194297	0.002335323576327486
2924.535091774397	0.002310810514741579
2924.536802356498	0.002285106762320077
2924.5385129406004	0.0022582930344036134
2924.5402235267034	0.002230454004704785
2924.541934114808	0.0022016773280956192
2924.5436447049137	0.002172052671235547
2924.5453552970203	0.00214167078235028
2924.5470658911277	0.0021106226137312945
2924.5487764872364	0.0020789985078228934
2924.550487085346	0.002046887455372959
2924.5521976854566	0.002014376431593745
2924.5539082875684	0.001981549813918293
2924.5556188916817	0.0019484989205189596
2924.5573294977958	0.0019152814523906159
2924.559040105911	0.0018819813537588326
2924.5607507160275	0.0018486684308457457
2924.562461328145	0.001815408191827128
2924.564171942264	0.001782261725387757
2924.5658825583832	0.001749285639548237
2924.567593176504	0.0017165759773378753
2924.569303796626	0.0016840926250969446
2924.571014418749	0.001651922750620316
2924.5727250428736	0.001620105406845207
2924.574435668999	0.0015886755383848206
2924.5761462971254	0.0015576641479529973
2924.5778569272534	0.0015270984804264254
2924.579567559382	0.0014970022197435817
2924.581278193512	0.0014673956945865374
2924.582988829643	0.001438296089049107
2924.5846994677754	0.0014097176551375323
2924.5864101079087	0.0013816719243679998
2924.5881207500433	0.0013596132607638367
2924.589831394179	0.0013326625736855835
2924.591542040316	0.001306264922057765
2924.5932526884544	0.0012804229816943957
2924.5949633385935	0.0012551376858722652
2924.5966739907344	0.001230408396511451
2924.5983846448758	0.0012062330656786857
2924.600095301019	0.0011826083872421567
2924.601805959163	0.0011595299386196745
2924.603516619308	0.001136992312701035
2924.6052272814545	0.0011149892401312034
2924.606937945602	0.0010936521758240225
2924.6086486117515	0.0010726967156963196
2924.6103592799013	0.0010522529121806956
2924.6120699500525	0.0010323120877731018
2924.613780622205	0.001012865181036271
2924.615491296359	0.0009939032131003334
2924.617201972514	0.0009754157747620118
2924.61891265067	0.0009573934514647275
2924.6206233308276	0.0009398262988287165
2924.6223340129864	0.0009227042840099786
2924.624044697146	0.0009060173277682937
2924.6257553833075	0.0008897553418354409
2924.62746607147	0.00087390826198952
2924.6291767616335	0.0008584660771419061
2924.6308874537986	0.0008434188548526178
2924.632598147965	0.000828756763539662
2924.634308844132	0.0008144700917015468
2924.636019542301	0.0008005492644291845
2924.6377302424708	0.0007869848574637572
2924.639440944642	0.0007737676090385781
2924.641151648815	0.0007608884297216623
2924.6428623549887	0.0007483384104796098
2924.644573063164	0.0007361088291006901
2924.64628377334	0.0007241911552082758
2924.6479944855178	0.0007125770539727627
2924.6497051996967	0.0007012583886802926
2924.651415915877	0.0006902272222846229
2924.6531266340585	0.0006794758180551641
2924.6548373542414	0.0006689966394276547
2924.656548076425	0.000658782349151843
2924.6582588006113	0.0006488258078183318
2924.6599695267982	0.0006391200718536272
2924.661680254986	0.0006296583910206932
2924.6633909851757	0.0006204342055288192
2924.6651017173663	0.0006114411427738942
2924.666812451558	0.0006026730137735914
2924.668523187752	0.0005941238093343237
2924.6702339259464	0.0005857876959922681
2924.6719446661427	0.0005776590117591018
2924.6736554083404	0.000569732261702649
2924.675366152539	0.0005620021133975195
2924.6770768987394	0.0005544633922426323
2924.6787876469407	0.0005471110767030218
2924.6804983971433	0.0005399402934642694
2924.6822091493477	0.0005329463125279821
2924.6839199035535	0.0005261245422597538
2924.68563065976	0.0005194705244030429
2924.6873414179686	0.0005129799290687354
2924.689052178178	0.0005066485497139395
2924.6907629403895	0.0005004722981156728
2924.692473704602	0.000494447199360537
2924.694184470816	0.000488569386838611
2924.695895239031	0.00048325359036749393
2924.6976060092475	0.0004776596000691802
2924.6993167814653	0.0004722018971851094
2924.701027555685	0.0004668769991149624
2924.7027383319055	0.00046168150725256485
2924.704449110128	0.0004566121023547032
2924.7061598903515	0.0004516655400255143
2924.707870672577	0.00044683864633676684
2924.7095814568033	0.00044212831361223337
2924.711292243031	0.0004375314963847021
2924.7130030312605	0.0004330452075743674
2924.714713821491	0.00042866651490036656
2924.716424613723	0.0004243925375622126
2924.7181354079567	0.0004202204432214307
2924.7198462041915	0.0004161474453158176
2924.721557002428	0.00041217080073874257
2924.7232678026667	0.00040828780791446473
2924.7249786049056	0.00040449580530488305
2924.7266894091467	0.00040079217036403936
2924.728400215389	0.000397174318978899
2924.7301110236326	0.0003936397054071783
2924.731821833878	0.0003901858227259858
2924.7335326461243	0.00038681020379871534
2924.735243460372	0.0003835104227544184
2924.736954276622	0.00038028409696622134
2924.738665094873	0.00037712888950014456
2924.7403759151257	0.00037404251199624206
2924.74208673738	0.0003710227279289935
2924.7437975616353	0.00036806735617100905
2924.745508387892	0.00036517427478666153
2924.747219216151	0.00036234142494850907
2924.748930046411	0.0003595668148665965
2924.750640878672	0.00035684852360284847
2924.7523517129353	0.00035418470463322027
2924.7540625491997	0.00035157358901038993
2924.755773387466	0.00034901348797133913
2924.7574842277336	0.000346502794837944
2924.7591950700025	0.00034403998604382036
2924.7609059142733	0.00034162362114675826
2924.7626167605454	0.0003392523416750892
2924.764327608819	0.0003369248686808657
2924.766038459094	0.0003346399988850557
2924.7677493113706	0.0003323965993253797
2924.769460165649	0.00033019360044184154
2924.7711710219287	0.00032802998756575885
2924.77288188021	0.0003259047908112933
2924.774592740493	0.00032381707341355703
2924.7763036027777	0.0003217659185829058
2924.7780144670637	0.0003197504150110886
2924.779725333351	0.00031776964119389906
2924.78143620164	0.0003158226487923743
2924.7831470719307	0.00031390844530587714
2924.784857944223	0.0003120259763792488
2924.786568818517	0.00031017410812350654
2924.7882796948124	0.00030835160987541244
2924.7899905731097	0.00030655713787375305
2924.791701453408	0.00030478922037657785
2924.793412335708	0.0003030462447691784
2924.79512322001	0.0003013264472562227
2924.7968341063133	0.00029962790572723996
2924.798544994618	0.00029794853638565044
2924.800255884925	0.000296286094702336
2924.801966777233	0.00029463818119535023
2924.8036776715426	0.0002930022524544329
2924.805388567854	0.0002913756377054266
2924.8070994661675	0.00028975556106458633
2924.808810366482	0.00028813916943648543
2924.8105212687983	0.00028652356581004845
2924.812232173116	0.00028490603417641314
2924.8139430794354	0.00028328342887562474
2924.8156539877564	0.00028165305991312284
2924.817364898079	0.0002800122704823549
2924.819075810404	0.0002783585817309753
2924.8207867247297	0.0002766897402660673
2924.822497641058	0.00027500376318245756
2924.824208559387	0.0002732989790056317
2924.825919479718	0.00027157406300992726
2924.8276304020505	0.00026982806555442274
2924.829341326385	0.00026806043230831467
2924.831052252721	0.0002662710155562076
2924.8327631810585	0.00026446007613323275
2924.834474111398	0.0002746472072799877
2924.836185043739	0.0002728066429147358
2924.8378959780816	0.00027094768530666613
2924.8396069144264	0.0002690720672386959
2924.841317852772	0.0002671818099684309
2924.84302879312	0.0002652791800226151
2924.8447397354694	0.0002633666428804027
2924.8464506798205	0.0002614467028169143
2924.8481616261734	0.0002595223899407584
2924.849872574528	0.00025759627533072926
2924.851583524884	0.0002556711465035999
2924.8532944772423	0.00025374976343872646
2924.8550054316024	0.0002518348222337874
2924.8567163879634	0.0002499289234877411
2924.8584273463266	0.00024803454568689265
2924.8601383066916	0.0002461540236792237
2924.861849269058	0.0002442895321300709
2924.863560233426	0.00024244307371001916
2924.8652711997966	0.00024061647165640743
2924.8669821681683	0.00023881136626713317
2924.868693138542	0.00023702921483803596
2924.8704041109168	0.00023527129453737583
2924.8721150852944	0.0002335387077069262
2924.873826061673	0.00023183238910629012
2924.8755370400536	0.00023015311464025245
2924.8772480204357	0.0002285015111620492
2924.87895900282	0.00022687806698462598
2924.8806699872057	0.00022528314278336126
2924.882380973593	0.00022371698262602102
2924.8840919619824	0.00022217972490767846
2924.8858029523735	0.00022067141301840287
2924.887513944767	0.0002191920056048291
2924.889224939162	0.00021774138632790763
2924.8909359355584	0.00021631937304067428
2924.8926469339567	0.00021492572634884688
2924.894357934357	0.0002135601575240509
2924.8960689367586	0.00021222233576501104
2924.8977799411623	0.0002109118948155908
2924.8994909475678	0.00020962843895366845
2924.901201955975	0.00020837154837960448
2924.902912966384	0.00020714078403294423
2924.9046239787954	0.00020593569187088434
2924.906334993208	0.0002047558066496924
2924.9080460096225	0.0002036006552381675
