Summary of the spectum NH3_linien: 
	 lower: 2924.0 [nm] 
	 upper: 2933.0 [nm] 
Gas cell 1: 
	 length: 100 cm | temp: 296 K|pressure: 1 atm|gas matrix: {'air': 0.99, 'self': 0.01} 
	 Gasses (VMR): 
	 	 H2O: 0.01 

 wavelenth [nm] 	 absorption
2924.020282961437	0.04816652885883499
2924.0219929413597	0.048288580354712285
2924.023702923283	0.048363493171466154
2924.025412907206	0.04838986733524775
2924.0271228931288	0.04836807488653683
2924.0288328810525	0.04829780588453225
2924.0305428709753	0.048180514222059156
2924.0322528628985	0.048016447638905224
2924.0339628568217	0.0478066220566854
2924.035672852745	0.047552309406801774
2924.037382850668	0.04725501953670175
2924.0390928505913	0.046916479191063676
2924.0408028525144	0.046538608595844466
2924.042512856438	0.046123496212717274
2924.0442228623615	0.04567337224996293
2924.045932870285	0.045190581513804506
2924.0476428802085	0.044677556164016585
2924.049352892132	0.04413678889771799
2924.051062906056	0.04357080703781402
2924.0527729219793	0.04298214793700639
2924.054482939903	0.04237333604186344
2924.056192959827	0.04174686188840582
2924.057902981751	0.04110516322801294
2924.059613005675	0.040450608412020306
2924.061323031599	0.039785482097515534
2924.0630330595236	0.039111973277193623
2924.064743089448	0.03843216558528684
2924.0664531213724	0.037748029784753334
2924.0681631552966	0.03706141831122067
2924.069873191221	0.03637406171720359
2924.0715832291457	0.03568756684467567
2924.0732932690707	0.035003416541650956
2924.0750033109957	0.034322970733656755
2924.0767133549207	0.033647468661560986
2924.078423400846	0.032978032102163324
2924.0801334487714	0.03231566939770614
2924.081843498697	0.03166128012862801
2924.0835535506226	0.03101566028243008
2924.085263604548	0.030379507780568527
2924.0869736604736	0.02975342824339433
2924.0886837184	0.02913794088703814
2924.090393778326	0.028533484460857905
2924.092103840252	0.027940423147971405
2924.0938139041787	0.02735905236439018
2924.095523970105	0.02678960440410738
2924.097234038032	0.02623225388921968
2924.098944107959	0.0256871229911243
2924.100654179886	0.02515428640187134
2924.102364253813	0.024633776037603305
2924.1040743297403	0.024125585465080368
2924.105784407668	0.023629674046723337
2924.107494487596	0.023145970804183902
2924.1092045695236	0.02267437800408445
2924.1109146534523	0.022214774472378185
2924.1126247393804	0.021767018647052994
2924.114334827309	0.021330951455285407
2924.1160449172376	0.0209063985607022
2924.1177550091666	0.020493173166469036
2924.1194651030955	0.020091077819558767
2924.121175199025	0.019699906406478118
2924.1228852969543	0.01931944588293877
2924.124595396884	0.018949477829139694
2924.1263054988144	0.01858977984352772
2924.1280156027447	0.0182401267873904
2924.1297257086753	0.01790029189266984
2924.131435816606	0.017570047743155737
2924.1331459265366	0.01724916714138236
2924.1348560384677	0.016937423870135748
2924.136566152399	0.01663459335852213
2924.1382762683306	0.01634045326134803
2924.1399863862625	0.016054783960023022
2924.1416965061944	0.015777368992590968
2924.1434066281267	0.015507995419911436
2924.14511675206	0.015246454134400289
2924.1468268779927	0.014992540117619413
2924.148537005926	0.014746052651271158
2924.1502471358594	0.014506795487754687
2924.151957267793	0.014274576983927645
2924.153667401727	0.014049210202556006
2924.155377537661	0.013830512985144261
2924.1570876755954	0.013618307999544443
2924.1587978155303	0.013412422765419985
2924.160507957466	0.013212689660300092
2924.1622181014013	0.013018945909001323
2924.163928247337	0.012831033557996974
2924.1656383952727	0.012648799437669278
2924.1673485452093	0.01247209511358438
2924.169058697146	0.012300776828692905
2924.1707688510824	0.012134705437872317
2924.17247900702	0.011973746336110369
2924.174189164957	0.011817769381492593
2924.175899324895	0.011666648814024239
2924.1776094868337	0.011520263171170053
2924.179319650772	0.011378495201121108
2924.181029816711	0.011241231774007598
2924.18273998465	0.01110836379235558
2924.1844501545897	0.010979786100841049
2924.1861603265293	0.010855397396027366
2924.1878705004697	0.010735100136480158
2924.18958067641	0.01061880045362551
2924.191290854351	0.010506408063675421
2924.1930010342926	0.01039783618086898
2924.1947112162343	0.010293001432415072
2924.1964214001764	0.010191823774968745
2924.1981315861185	0.010094226413307261
2924.199841774061	0.0100001357209758
2924.2015519640045	0.009909481163172473
2924.203262155948	0.00982219522194494
2924.2049723498917	0.009738213323777556
2924.206682545836	0.009657473770224634
2924.20839274378	0.00957991766808619
2924.210102943726	0.00950548886799818
2924.2118131456714	0.009434133899219987
2924.213523349617	0.009365801912678218
2924.2152335555634	0.009300444620275572
2924.21694376351	0.009238016242630764
2924.2186539734566	0.009178473456436853
2924.2203641854044	0.009121775344979044
2924.222074399352	0.009067883351201456
2924.2237846153002	0.009016761233304194
2924.225494833249	0.008968375022845976
2924.2272050531983	0.008922692985320668
2924.2289152751478	0.008879685583238484
2924.230625499098	0.008839325441530987
2924.2323357250484	0.008801587315455217
2924.234045952999	0.008766448060809728
2924.2357561829504	0.008733886606491992
2924.237466414902	0.008703883929352951
2924.2391766488545	0.008676423031313885
2924.240886884807	0.008651488918710704
2924.2425971227603	0.008629068583823729
2924.244307362714	0.008609150988585612
2924.246017604668	0.008591727050354048
2924.2477278486226	0.008576789629812342
2924.2494380945777	0.008564333520878598
2924.251148342533	0.00855435544261507
2924.252858592489	0.008546854033087192
2924.254568844445	0.008541829845126858
2924.256279098402	0.008539285343953651
2924.2579893543593	0.008539224906601195
2924.259699612318	0.0085416548230971
2924.261409872276	0.008546583299333665
2924.263120134235	0.008554020461577272
2924.2648303981946	0.008563978362538638
2924.266540664154	0.00857647098893688
2924.268250932115	0.008591514270476996
2924.2699612020756	0.00860912609015363
2924.271671474037	0.008629326295784612
2924.273381747999	0.0086521367126704
2924.275092023962	0.008677581157269243
2924.276802301925	0.008705685451722123
2924.278512581888	0.008736477439175938
2924.2802228638525	0.008769986999630053
2924.2819331478167	0.008806246066211831
2924.283643433782	0.00884528864168932
2924.285353721748	0.008887150814921307
2924.287064011714	0.008931870777127537
2924.288774303681	0.008979488841599936
2924.290484597648	0.009030047442737277
2924.2921948936164	0.00908359117372981
2924.293905191585	0.009140166782941272
2924.2956154915537	0.009199823188403067
2924.2973257935237	0.009262611485887917
2924.2990360974936	0.009328584954227503
2924.3007464034645	0.009397799057264344
2924.3024567114358	0.009470311441854617
2924.3041670214075	0.009546181931262887
2924.30587733338	0.009625472514635858
2924.307587647353	0.0097082473233151
2924.3092979633275	0.009794572614237662
2924.311008281302	0.009884516731214155
2924.3127186012766	0.009978150064422708
2924.314428923252	0.010075544998141117
2924.316139247228	0.010176775847153263
2924.317849573205	0.010281918780343902
2924.3195599011824	0.010391051730000544
2924.3212702311603	0.010504254285197856
2924.3229805631386	0.010621607567494085
2924.324690897118	0.010743194087052932
2924.3264012330983	0.010869097576951203
2924.328111571079	0.010999402803853808
2924.3298219110598	0.011134195352097476
2924.3315322530416	0.011273561379013142
2924.333242597024	0.011417587338558244
2924.334952943007	0.011566359670340476
2924.3366632909906	0.011719964450895737
2924.338373640975	0.01187848700390537
2924.34008399296	0.012042011465853708
2924.341794346946	0.012210620303503505
2924.3435047029325	0.012384393779097391
2924.345215060919	0.012563409359987898
2924.346925420907	0.012747741067736462
2924.348635782895	0.01293745876318897
2924.3503461468845	0.013132627363074967
2924.352056512874	0.013333305984002619
2924.3537668808644	0.013539547009759012
2924.3554772508555	0.01375139507798806
2924.357187622847	0.013968885982571844
2924.35889799684	0.014192045488458427
2924.360608372833	0.014420888055812986
2924.362318750827	0.01465541547208482
2924.3640291308216	0.014895615389612038
2924.365739512817	0.015141459769164922
2924.367449896813	0.01539290322998299
2924.36916028281	0.015649881308670177
2924.370870670807	0.015912308630972705
2924.3725810608053	0.01618007700245916
2924.3742914528048	0.01645305342647263
2924.3760018468042	0.016731078059887272
2924.3777122428046	0.01701396212142592
2924.379422640806	0.017301485768355107
2924.3811330408075	0.01759339596307885
2924.38284344281	0.017889404353679583
2924.3845538468136	0.018189185196950453
2924.3862642528175	0.018492373356657543
2924.3879746608222	0.018798562414139353
2924.389685070828	0.019107302932739212
2924.391395482835	0.019418100921909542
2924.393105896842	0.019730416550364782
2924.39481631285	0.020043663102090048
2924.3965267308586	0.020357206583365817
2924.398237150868	0.020670365183690254
2924.3999475728783	0.0209824097579957
2924.4016579968893	0.021292564582920948
2924.403368422901	0.021600008757827083
2924.4050788509135	0.021903878253674125
2924.4067892809276	0.022203268657958963
2924.4084997129416	0.022497238655536322
2924.4102101469566	0.022784814276328058
2924.4119205829725	0.023064993925899446
2924.413631020989	0.02333675420226866
2924.4153414610064	0.02359905648366223
2924.417051903025	0.02385085425325595
2924.418762347044	0.02409110110618795
2924.4204727930637	0.024318759362478626
2924.4221832410844	0.024532809187559734
2924.4238936911065	0.0247322581007694
2924.4256041431286	0.024916150731919662
2924.427314597152	0.02508357866944899
2924.429025053176	0.02523369022791655
2924.430735511201	0.025365699954254195
2924.4324459712266	0.02547889768625644
2924.434156433253	0.025572656977682184
2924.435866897281	0.025646442710682837
2924.437577363309	0.02569981772854868
2924.4392878313383	0.0257324483396848
2924.4409983013684	0.025744108566806423
2924.4427087733993	0.02573468304283988
2924.444419247431	0.02570416848604884
2924.446129723464	0.025652673720213404
2924.4478402014975	0.02558041824038426
2924.449550681532	0.025487729359170985
2924.4512611635673	0.02537503800173979
2924.452971647603	0.025242873248543796
2924.4546821336403	0.02509185575056716
2924.456392621679	0.024922690168126427
2924.4581031117177	0.02473615679593899
2924.4598136037575	0.02453310255385588
2924.4615240977982	0.024314431526732294
2924.46323459384	0.024081095236966554
2924.4649450918823	0.023834082828916636
2924.4666555919257	0.023574411334396972
2924.46836609397	0.02330311622395842
2924.4700765980156	0.023021242077894577
2924.4717871040616	0.022729834280274308
2924.473497612109	0.02242993075607269
2924.4752081221573	0.0221225546620496
2924.476918634206	0.021808707741803213
2924.478629148256	0.021489364440209213
2924.480339664307	0.02116546679188247
2924.4820501823588	0.020837920082291794
2924.4837607024115	0.02050758926549623
2924.4854712244655	0.020175296106551666
2924.48718174852	0.019841817011589602
2924.4888922745763	0.019507881494658097
2924.490602802633	0.019174171228650616
2924.4923133326906	0.01884131962105906
2924.494023864749	0.01850991185630091
2924.4957343988085	0.018180485343596176
2924.4974449348692	0.01785353051234717
2924.499155472931	0.01752949189908526
2924.5008660129934	0.017208769473843977
2924.5025765550567	0.016891720158386025
2924.5042870991215	0.016578659493963754
2924.505997645187	0.016269863421973008
2924.5077081932536	0.015965570147425057
2924.5094187433215	0.01566598205991876
2924.5111292953898	0.015371267695435842
2924.5128398494594	0.015081558987852794
2924.51455040553	0.01479697230886523
2924.5162609636013	0.014517581999374585
2924.517971523674	0.01424344130623234
2924.5196820857477	0.01397457977350236
2924.5213926498222	0.01371100534401859
2924.5231032158986	0.013452706491652089
2924.5248137839753	0.01319965438935633
2924.526524354053	0.01295180510208882
2924.5282349261315	0.012709101799132538
2924.5299455002114	0.012471476964819317
2924.5316560762926	0.012238854581893666
2924.5333666543743	0.012011152253611823
2924.5350772344573	0.011788283224786644
2924.5367878165416	0.011570158258523477
2924.5384984006273	0.011356687325137615
2924.5402089867134	0.011147781063619133
2924.5419195748004	0.010943351982316107
2924.543630164889	0.010743315377882645
2924.5453407569785	0.010547589963002424
2924.547051351069	0.010356098208639253
2924.5487619471605	0.01016876642089104
2924.5504725452533	0.009985524584358973
2924.552183145347	0.009806306014726984
2924.553893747442	0.009631046868565973
2924.5556043515385	0.009459685561617248
2924.5573149576353	0.009292162144810878
2924.5590255657335	0.009128417682200407
2924.560736175833	0.008968393669002261
2924.5624467879334	0.008812031517889563
2924.564157402035	0.008659272133268225
2924.5658680181377	0.0085100555801777
2924.5675786362413	0.008364320879363563
2924.5692892563466	0.008222005838234847
2924.5709998784528	0.008083051729429247
2924.57271050256	0.007947384388440004
2924.5744211286683	0.007814942905434608
2924.576131756778	0.007685660650674664
2924.5778423868883	0.007559470225501186
2924.5795530190003	0.007436303667647692
2924.581263653113	0.007316092668902208
2924.5829742892274	0.007198768796035759
2924.5846849273426	0.007084263707682448
2924.586395567459	0.006972509361526158
2924.588106209577	0.006863438207650452
2924.5898168536955	0.0067569833654060885
2924.5915274998156	0.006653078781779009
2924.5932381479365	0.006551659370531815
2924.594948798059	0.006452661134970672
2924.5966594501824	0.006356021266810341
2924.598370104307	0.006261678233658752
2924.600080760433	0.006169571847469024
2924.60179141856	0.0060796433191638855
2924.603502078688	0.005991835300355297
2924.605212740818	0.005906091913703171
2924.6069234049487	0.005822358782273329
2924.6086340710804	0.0057405830100967226
2924.6103447392134	0.0056607132290148465
2924.6120554093477	0.005582699574154026
2924.6137660814834	0.005506493683614999
2924.61547675562	0.005432048689129942
2924.617187431758	0.005359319204003676
2924.618898109897	0.00528826130896376
2924.6206087900377	0.0052188325363151655
2924.6223194721797	0.005150991854797171
2924.6240301563225	0.0050846996512268205
2924.6257408424667	0.005019917715420763
2924.627451530612	0.004956609229500697
2924.6291622207586	0.004894738733791537
2924.6308729129064	0.004834272142576146
2924.6325836070555	0.004775176714987617
2924.634294303206	0.004717421051105952
2924.6360050013577	0.004660975086443697
2924.637715701511	0.004605810089677642
2924.6394264036653	0.004551898664155174
2924.6411371078207	0.0044992147534738125
2924.6428478139774	0.004447733651908536
2924.6445585221354	0.004397432020070813
2924.646269232295	0.0043482879068139635
2924.6479799444555	0.004300280776162957
2924.6496906586176	0.004253391544748686
2924.6514013747806	0.004207602624245577
2924.653112092946	0.004162897974481883
2924.6548228131114	0.004119263165745735
2924.6565335352784	0.004076685452826134
2924.658244259447	0.0040351538590484015
2924.659954985617	0.003994659274274337
2924.661665713788	0.003955194563461384
2924.6633764439603	0.003916754687090296
2924.665087176134	0.0038793368301498488
2924.666797910309	0.0038429405348443524
2924.6685086464854	0.003807567828397307
2924.6702193846636	0.0037732233325250553
2924.6719301248427	0.003739918655022767
2924.673640867023	0.0037076574355920933
2924.675351611205	0.0036764522281761414
2924.677062357388	0.0036463200634684334
2924.6787731055724	0.0036172782397627667
2924.680483855758	0.003589346151945838
2924.6821946079453	0.003562545248152138
2924.683905362134	0.0035368992057834836
2924.6856161183237	0.003512455890122723
2924.6873268765153	0.00348920146700471
2924.6890376367082	0.0034671898077640595
2924.690748398902	0.0034464553693155375
2924.6924591630973	0.003427054846429911
2924.6941699292943	0.003408974293248046
2924.6958806974926	0.003392257572922275
2924.697591467692	0.0033769107070742432
2924.699302239893	0.0033629164957089674
2924.701013014095	0.0033502259518566335
2924.7027237902994	0.003338749053473755
2924.7044345685044	0.003328345274168698
2924.7061453487113	0.003318814771607226
2924.707856130919	0.0033098916443812243
2924.7095669151286	0.003301241168612745
2924.7112777013394	0.0032924632003275
2924.7129884895517	0.003283103760571837
2924.7146992797652	0.0032726760367911556
2924.7164100719806	0.0032606905621356264
2924.718120866197	0.003246692371788429
2924.7198316624153	0.003230300880095016
2924.7215424606347	0.0032112467118770027
2924.723253260856	0.003189399355395972
2924.724964063078	0.003164780620983132
2924.726674867302	0.0031375613525599366
2924.728385673527	0.003108042017223589
2924.7300964817537	0.003076620810022024
2924.731807291982	0.003043754896540851
2924.7335181042113	0.0030099209558386297
2924.7352289184428	0.002975580319505289
2924.7369397346756	0.0029411522090925235
2924.7386505529093	0.0029069964928563063
2924.740361373145	0.0028734055734188635
2924.742072195382	0.002840603806320563
2924.7437830196204	0.0028087523014177496
2924.7454938458604	0.00277795695590477
2924.747204674102	0.002748277906653107
2924.748915504345	0.002719739076054717
2924.7506263365894	0.0026923369496456573
2924.7523371708357	0.0026660481815314885
2924.7540480070834	0.0026408358451415204
2924.7557588453324	0.00261665434647973
2924.7574696855827	0.0025934532085547524
2924.759180527835	0.00257117984759625
2924.7608913720883	0.0025497815572947946
2924.762602218343	0.0025292068706564974
2924.7643130665997	0.002509406448981788
2924.766023916858	0.0024903336205372995
2924.767734769118	0.002471944665950021
2924.7694456233794	0.0024541989251063434
2924.771156479642	0.0024370587819685374
2924.772867337906	0.0024204895689475814
2924.774578198172	0.002404455546740847
2924.7762890604395	0.0023889355521818922
2924.7779999247086	0.0023738985798351653
2924.779710790979	0.0023593200786218294
2924.781421659251	0.002345177562916967
2924.7831325295247	0.002331450432700777
2924.7848434018	0.0023181198044959217
2924.786554276077	0.0023051683543791057
2924.7882651523555	0.002292580173470782
2924.7899760306354	0.002280340635878453
2924.7916869109167	0.002268436278634156
2924.7933977932	0.002256854692971766
2924.7951086774847	0.002245584426332159
2924.796819563771	0.002234614894150222
2924.798530452059	0.0022239363007032775
2924.8002413423483	0.002213539568129086
2924.80195223464	0.0022034162727487816
2924.803663128933	0.002193558587858413
2924.805374025227	0.002183959232149979
2924.807084923523	0.0021746114231031566
2924.8087958238207	0.0021655088347315443
2924.81050672612	0.0021566455592569866
2924.8122176304205	0.0021480160723761355
2924.813928536723	0.0021396152018657855
2924.815639445027	0.002131438099292171
2924.817350355333	0.002123480214589746
2924.819061267641	0.0021157372732500956
2924.8207721819495	0.002108205255861084
2924.8224830982604	0.002100880379696024
2924.8241940165726	0.0020937590821694663
2924.8259049368867	0.0020868380058119973
2924.827615859202	0.0020801139847187455
2924.8293267835193	0.0020735840321952637
2924.8310377098383	0.002067245329513856
2924.832748638159	0.0020610952156556728
2924.8344595684816	0.002055131177940095
2924.8361705008056	0.0020493508434648033
2924.8378814351313	0.002043751971260721
2924.839592371459	0.0020383324457317054
2924.8413033097877	0.002033090267650195
2924.8430142501184	0.0020280235517790013
2924.844725192451	0.0020231305189171156
2924.846436136785	0.0020184094914377226
2924.8481470831207	0.002013858888634701
2924.849858031458	0.002009477222414624
2924.8515689817978	0.0020052630935014637
2924.8532799341388	0.0020012151876194206
2924.8549908884816	0.00199733227230392
2924.8567018448257	0.001993613193809418
2924.858412803172	0.0019900568742895475
2924.86012376352	0.0019866623091772118
2924.8618347258694	0.0019834285648663297
2924.8635456902207	0.001980354776394133
2924.8652566565734	0.0019774401454351054
2924.8669676249287	0.001974683938411048
2924.868678595285	0.0019720854855368453
2924.8703895676435	0.0019696441754464278
2924.8721005420034	0.0019673594600972955
2924.873811518365	0.00196523084807132
2924.8755224967285	0.0019632579051463983
